#  aims_uuid : 3D43971A-E854-4CF1-A67A-137FCC19D641                                
# Angular momentum resolved density for species Mnas calculated by FHI-aims
# The energy reference for this output is the chemical potential, mu =       -5.766066 eV
#      Energy (eV)         total dos     l= 0              l= 1              l= 2              l= 3              l= 4              l= 5
       -4.23393446        1.78080887        0.02763223        0.04137477        1.69489288        0.01360211        0.00322826        0.00007863
       -4.20048965        2.10446207        0.02295426        0.05090313        2.01175069        0.01499044        0.00376965        0.00009390
       -4.16704483        2.44123352        0.03220434        0.07562256        2.31177079        0.01712597        0.00439050        0.00011936
       -4.13360001        2.92658684        0.04859920        0.10600399        2.74563319        0.02084826        0.00534629        0.00015590
       -4.10015520        3.46132518        0.05985036        0.12780694        3.24282142        0.02399262        0.00666670        0.00018714
       -4.06671038        3.89092253        0.06042608        0.13818658        3.65982833        0.02389075        0.00839298        0.00019781
       -4.03326557        4.31578772        0.05364182        0.14615335        4.08412158        0.02079935        0.01087887        0.00019275
       -3.99982075        4.84106858        0.04516038        0.15575182        4.60861167        0.01751595        0.01384010        0.00018866
       -3.96637593        5.11705618        0.03907900        0.15696273        4.88909195        0.01623441        0.01549724        0.00019085
       -3.93293112        4.73693346        0.03956638        0.14389927        4.52156829        0.01729002        0.01441643        0.00019307
       -3.89948630        3.90277596        0.05085217        0.12774385        3.69222516        0.02027134        0.01149024        0.00019320
       -3.86604149        3.11846694        0.07058250        0.11780797        2.89735955        0.02392318        0.00860417        0.00018958
       -3.83259667        2.54696026        0.08550055        0.11054182        2.31866112        0.02552960        0.00655189        0.00017527
       -3.79915185        2.05286639        0.08070685        0.10405602        1.83988543        0.02290545        0.00516224        0.00015040
       -3.76570704        1.60227257        0.05838348        0.10224562        1.41973267        0.01751875        0.00426539        0.00012664
       -3.73226222        1.29099667        0.03770319        0.10066939        1.13546428        0.01335331        0.00369561        0.00011090
       -3.69881741        1.13934329        0.03031018        0.09146105        1.00201995        0.01223883        0.00321371        0.00009957
       -3.66537259        1.12883002        0.03190383        0.08378666        0.99684967        0.01317587        0.00302000        0.00009400
       -3.63192777        1.27213265        0.03679437        0.09325063        1.12326199        0.01519335        0.00353102        0.00010128
       -3.59848296        1.45804210        0.04175294        0.11188880        1.28273340        0.01716055        0.00439186        0.00011455
       -3.56503814        1.46013969        0.04106668        0.11464291        1.28276333        0.01693428        0.00461809        0.00011440
       -3.53159333        1.29357283        0.03398245        0.09821242        1.14250523        0.01474442        0.00402808        0.00010023
       -3.49814851        1.26236442        0.02933011        0.08628841        1.12880502        0.01429356        0.00355205        0.00009526
       -3.46470369        1.49299538        0.03295745        0.09064874        1.34808738        0.01742110        0.00377137        0.00010935
       -3.43125888        1.75471211        0.04089308        0.09438325        1.59352981        0.02163856        0.00414384        0.00012357
       -3.39781406        1.80714023        0.04681689        0.08200059        1.65016795        0.02400560        0.00402783        0.00012137
       -3.36436924        1.67408981        0.04715002        0.06109988        1.53818461        0.02395183        0.00359449        0.00010897
       -3.33092443        1.56453451        0.04241693        0.04585793        1.45024297        0.02262913        0.00329047        0.00009709
       -3.29747961        1.64363059        0.03823072        0.04164007        1.53878437        0.02174129        0.00314684        0.00008730
       -3.26403480        1.87874193        0.04020313        0.04736525        1.76556585        0.02250141        0.00302505        0.00008125
       -3.23058998        2.02952611        0.04593811        0.05668850        1.90009357        0.02385644        0.00286897        0.00008051
       -3.19714516        1.90746411        0.04712785        0.06230942        1.77221134        0.02313957        0.00259674        0.00007919
       -3.16370035        1.71109894        0.04120505        0.06519690        1.58199309        0.02035947        0.00227134        0.00007309
       -3.13025553        1.82219471        0.03374564        0.06923149        1.69844157        0.01857792        0.00213219        0.00006589
       -3.09681072        2.26224925        0.02844851        0.07061438        2.14203221        0.01889066        0.00220455        0.00005893
       -3.06336590        2.64970391        0.02414241        0.06699527        2.53693294        0.01928842        0.00229310        0.00005177
       -3.02992108        2.72397092        0.02122663        0.06930004        2.61206204        0.01892187        0.00240834        0.00005200
       -2.99647627        2.67835664        0.02240907        0.09005061        2.54340193        0.01964353        0.00278303        0.00006846
       -2.96303145        2.72334910        0.02600979        0.11762043        2.55480278        0.02155989        0.00326508        0.00009112
       -2.92958664        2.67042616        0.02582216        0.12073316        2.49942188        0.02110543        0.00324831        0.00009522
       -2.89614182        2.37318799        0.02062325        0.09408261        2.23870992        0.01703919        0.00265619        0.00007684
       -2.86269700        2.02324881        0.01540436        0.06802197        1.92480762        0.01283523        0.00212103        0.00005860
       -2.82925219        1.79630183        0.01287187        0.06488360        1.70518834        0.01127544        0.00202681        0.00005578
       -2.79580737        1.68026272        0.01195727        0.08220730        1.57154517        0.01219612        0.00229114        0.00006572
       -2.76236256        1.57068239        0.01101188        0.10601003        1.43694024        0.01393987        0.00270124        0.00007913
       -2.72891774        1.35209039        0.00859066        0.11599964        1.21038823        0.01415731        0.00287108        0.00008347
       -2.69547292        1.02794562        0.00505885        0.10143808        0.90680767        0.01206309        0.00250490        0.00007303
       -2.66202811        0.73793303        0.00265517        0.07428440        0.64978175        0.00933667        0.00181889        0.00005614
       -2.62858329        0.61538899        0.00291289        0.05303246        0.55021174        0.00791864        0.00126888        0.00004438
       -2.59513848        0.74738832        0.00559163        0.04993969        0.68156023        0.00902545        0.00122581        0.00004551
       -2.56169366        1.14252678        0.00913047        0.06990694        1.04887753        0.01261599        0.00193526        0.00006058
       -2.52824884        1.65536627        0.01255346        0.10284237        1.52001306        0.01666200        0.00321582        0.00007957
       -2.49480403        2.07148810        0.01807251        0.12215955        1.90840364        0.01856183        0.00420349        0.00008708
       -2.46135921        2.32309077        0.03132407        0.10897878        2.16079234        0.01780895        0.00410908        0.00007756
       -2.42791440        2.64372265        0.06150231        0.07878490        2.48275112        0.01731009        0.00330957        0.00006466
       -2.39446958        3.43202260        0.11794846        0.06276808        3.22763119        0.02075454        0.00285327        0.00006705
       -2.36102476        4.75632669        0.19365548        0.07060614        4.46067581        0.02816394        0.00313886        0.00008645
       -2.32757995        5.98749704        0.25571515        0.09011007        5.60231282        0.03551550        0.00373454        0.00010896
       -2.29413513        6.33214063        0.27191872        0.10833102        5.90881359        0.03881952        0.00413594        0.00012185
       -2.26069032        5.80965788        0.24722373        0.11961919        5.40099797        0.03739702        0.00429854        0.00012144
       -2.22724550        5.14520191        0.21519497        0.12276588        4.76906343        0.03365776        0.00440800        0.00011187
       -2.19380068        4.67454945        0.19256329        0.11797166        4.32935751        0.03021945        0.00433666        0.00010088
       -2.16035587        4.02569775        0.16558100        0.10514054        3.72394799        0.02717295        0.00376423        0.00009104
       -2.12691105        2.99020675        0.12602236        0.08782479        2.74986661        0.02353775        0.00287594        0.00007930
       -2.09346623        1.98502956        0.08998330        0.07551375        1.79682463        0.02041572        0.00222371        0.00006845
       -2.06002142        1.39375769        0.07061499        0.07423202        1.22725711        0.01971131        0.00187503        0.00006722
       -2.02657660        1.14404221        0.06055267        0.08281134        0.97802610        0.02096926        0.00160545        0.00007740
       -1.99313179        1.11294515        0.05074187        0.10439369        0.93317629        0.02288395        0.00165413        0.00009521
       -1.95968697        1.34779340        0.04484005        0.14556587        1.12903976        0.02589196        0.00233488        0.00012088
       -1.92624215        1.75008184        0.04497622        0.19518401        1.47707505        0.02937279        0.00332520        0.00014857
       -1.89279734        2.02316493        0.04391974        0.22614041        1.71868899        0.03018746        0.00406702        0.00016131
       -1.85935252        2.09976155        0.03922502        0.23289703        1.79505340        0.02805199        0.00437580        0.00015832
       -1.82590771        2.21775211        0.03645287        0.24079614        1.90847985        0.02761179        0.00424584        0.00016563
       -1.79246289        2.42278672        0.03691017        0.26027342        2.09039028        0.03131428        0.00370537        0.00019320
       -1.75901807        2.42878942        0.03527973        0.26621596        2.08945382        0.03460170        0.00302746        0.00021075
       -1.72557326        2.13458545        0.02845934        0.24449614        1.82631053        0.03246566        0.00265990        0.00019389
       -1.69212844        1.79041617        0.01967032        0.21398395        1.52761817        0.02622713        0.00275912        0.00015748
       -1.65868363        1.50961562        0.01300677        0.18260484        1.29155552        0.01950532        0.00282185        0.00012131
       -1.62523881        1.19666665        0.00916018        0.14209368        1.02919083        0.01377286        0.00236045        0.00008865
       -1.59179399        0.98601157        0.00854897        0.11214434        0.85244852        0.01095576        0.00184404        0.00006994
       -1.55834918        1.16247087        0.01276393        0.12731983        1.00630091        0.01388828        0.00211496        0.00008295
       -1.52490436        1.72586661        0.02039504        0.18911695        1.49067169        0.02234269        0.00321395        0.00012629
       -1.49145955        2.33984123        0.02541191        0.26290055        2.01522200        0.03173626        0.00439630        0.00017422
       -1.45801473        2.59955589        0.02331111        0.30491126        2.22953706        0.03666826        0.00493138        0.00019683
       -1.42456991        2.30720771        0.01626801        0.28521646        1.96672101        0.03433492        0.00448792        0.00017938
       -1.39112510        1.67331938        0.00959379        0.21462456        1.41950429        0.02613367        0.00333043        0.00013264
       -1.35768028        1.20183228        0.00721746        0.14798257        1.02558638        0.01858974        0.00236524        0.00009090
       -1.32423547        1.19386427        0.01059522        0.12988079        1.03208807        0.01888177        0.00233504        0.00008338
       -1.29079065        1.49761678        0.01731368        0.15425505        1.29517502        0.02763162        0.00313439        0.00010702
       -1.25734583        1.73468306        0.02134653        0.18357220        1.48761212        0.03802203        0.00399656        0.00013362
       -1.22390102        1.67115464        0.01890457        0.18923051        1.41585640        0.04280642        0.00421678        0.00013995
       -1.19045620        1.42386972        0.01330704        0.17565281        1.18865997        0.04215888        0.00396179        0.00012924
       -1.15701139        1.24396156        0.01050828        0.16300661        1.02444146        0.04190868        0.00397740        0.00011913
       -1.12356657        1.19073222        0.01195251        0.15881554        0.97007475        0.04524588        0.00452548        0.00011805
       -1.09012175        1.16949511        0.01454292        0.15935835        0.94005948        0.05009876        0.00531396        0.00012164
       -1.05667694        1.12051205        0.01518819        0.15902445        0.88766356        0.05252375        0.00599106        0.00012105
       -1.02323212        1.05087979        0.01372942        0.15292468        0.82558246        0.05223200        0.00629707        0.00011416
       -0.98978731        1.00777229        0.01258688        0.14557281        0.78817946        0.05487737        0.00644391        0.00011185
       -0.95634249        1.00886131        0.01317275        0.14624399        0.77974247        0.06268506        0.00689647        0.00012057
       -0.92289767        0.97292512        0.01363905        0.14989574        0.73430972        0.06754307        0.00741082        0.00012672
       -0.88945286        0.83718975        0.01209194        0.14222846        0.61374068        0.06175985        0.00725400        0.00011481
       -0.85600804        0.66560015        0.00924620        0.12152791        0.48067418        0.04786509        0.00619892        0.00008785
       -0.82256322        0.56020796        0.00695651        0.10285916        0.41050489        0.03499992        0.00482456        0.00006292
       -0.78911841        0.54244623        0.00619327        0.09791072        0.40476133        0.02968503        0.00384308        0.00005280
       -0.75567359        0.55162614        0.00651311        0.09975948        0.41159609        0.03036862        0.00333503        0.00005381
       -0.72222878        0.55091888        0.00770307        0.09905582        0.40773110        0.03333994        0.00303152        0.00005743
       -0.68878396        0.57543224        0.01023824        0.10060570        0.42266545        0.03897950        0.00287915        0.00006420
       -0.65533914        0.60750519        0.01236025        0.10377549        0.44419238        0.04434083        0.00276509        0.00007114
       -0.62189433        0.53785076        0.01093514        0.09139918        0.39254981        0.04059293        0.00230907        0.00006463
       -0.58844951        0.35998840        0.00660991        0.06206981        0.26209192        0.02767673        0.00149614        0.00004389
       -0.55500470        0.22119926        0.00318081        0.04136984        0.15788109        0.01787247        0.00086703        0.00002801
       -0.52155988        0.22456898        0.00275025        0.04810802        0.15269950        0.02017119        0.00080885        0.00003118
       -0.48811506        0.31842084        0.00456034        0.07198846        0.21000029        0.03069373        0.00113072        0.00004730
       -0.45467025        0.37293507        0.00650700        0.08545085        0.24180730        0.03778269        0.00132910        0.00005812
       -0.42122543        0.31998258        0.00719667        0.07342428        0.20349209        0.03469615        0.00112022        0.00005317
       -0.38778062        0.21093704        0.00689483        0.04820036        0.12914689        0.02596108        0.00069436        0.00003953
       -0.35433580        0.12884255        0.00587812        0.03007052        0.07345553        0.01900671        0.00040306        0.00002860
       -0.32089098        0.10778160        0.00400144        0.02834120        0.05751527        0.01748068        0.00041732        0.00002570
       -0.28744617        0.14183997        0.00204726        0.04186001        0.07473562        0.02246658        0.00069817        0.00003232
       -0.25400135        0.18879626        0.00109304        0.05808662        0.09856150        0.03002438        0.00098766        0.00004306
       -0.22055654        0.19433468        0.00128378        0.06115599        0.09747482        0.03338805        0.00098350        0.00004854
       -0.18711172        0.16053156        0.00195412        0.05270871        0.07226932        0.03282016        0.00073028        0.00004897
       -0.15366690        0.13363984        0.00221394        0.04717004        0.05001431        0.03365714        0.00053313        0.00005128
       -0.12022209        0.12789799        0.00173571        0.04808521        0.04133944        0.03619166        0.00049046        0.00005552
       -0.08677727        0.12006376        0.00100966        0.04711409        0.03529327        0.03613990        0.00045105        0.00005579
       -0.05333246        0.09650504        0.00053611        0.03948229        0.02470287        0.03140772        0.00032690        0.00004916
       -0.01988764        0.06510550        0.00031594        0.02782613        0.01346684        0.02327890        0.00018063        0.00003706
        0.01355718        0.03659053        0.00018076        0.01621100        0.00592560        0.01417143        0.00007885        0.00002288
        0.04700199        0.01653356        0.00008174        0.00747018        0.00221353        0.00672952        0.00002760        0.00001098
        0.08044681        0.00589882        0.00002965        0.00262015        0.00083486        0.00240216        0.00000804        0.00000396
        0.11389162        0.00183859        0.00001205        0.00069637        0.00049276        0.00063358        0.00000277        0.00000106
        0.14733644        0.00074362        0.00000716        0.00015755        0.00045100        0.00012586        0.00000183        0.00000023
        0.18078126        0.00053401        0.00000501        0.00005161        0.00045133        0.00002441        0.00000160        0.00000006
        0.21422607        0.00051842        0.00000436        0.00003660        0.00046454        0.00001137        0.00000151        0.00000003
        0.24767089        0.00057140        0.00000574        0.00003657        0.00051449        0.00001281        0.00000176        0.00000003
